# column   1     --> time{femtosecond} : The elapsed simulation time.
# column   2     --> conserved : The value of the conserved energy quantity per bead.
# column   3     --> temperature{kelvin} : The current temperature, as obtained from the MD kinetic energy.
# column   4     --> kinetic_cv : The centroid-virial quantum kinetic energy of the physical system.
# column   5     --> potential : The physical system potential energy.
# column   6     --> pressure_cv{bar} : The quantum estimator for pressure of the physical system.
    0.00000000e+00    -1.15027688e-01     6.79972779e+01     4.75022280e-05    -1.16242463e-01     4.48860512e+00   
    5.00000000e-01    -1.15027915e-01     1.31179728e+01     4.75022280e-05    -1.16268444e-01     5.86261588e+00   
    1.00000000e+00    -1.15028994e-01     4.87721860e+01     4.75022280e-05    -1.16609307e-01     2.55487613e+01   
    1.50000000e+00    -1.15030876e-01     1.18248123e+02     4.75022280e-05    -1.17256387e-01     6.39092599e+01   
    2.00000000e+00    -1.15033491e-01     2.18555630e+02     4.75022280e-05    -1.18197963e-01     1.19293126e+02   
    2.50000000e+00    -1.15036669e-01     3.37244451e+02     4.75022280e-05    -1.19395622e-01     1.84826065e+02   
    3.00000000e+00    -1.15040355e-01     4.79219882e+02     4.75022280e-05    -1.20812867e-01     2.63216492e+02   
    3.50000000e+00    -1.15044374e-01     6.43435565e+02     4.75022280e-05    -1.22415372e-01     3.53886669e+02   
    4.00000000e+00    -1.15048556e-01     8.19062414e+02     4.75022280e-05    -1.24169897e-01     4.50857416e+02   
    4.50000000e+00    -1.15052871e-01     9.96792764e+02     4.75022280e-05    -1.26031544e-01     5.48989591e+02   
    5.00000000e+00    -1.15057249e-01     1.20378951e+03     4.75022280e-05    -1.27966041e-01     6.63280936e+02   
    5.50000000e+00    -1.15061605e-01     1.39893420e+03     4.75022280e-05    -1.29936536e-01     7.71028281e+02   
    6.00000000e+00    -1.15065706e-01     1.59734964e+03     4.75022280e-05    -1.31902287e-01     8.80581537e+02   
    6.50000000e+00    -1.15069580e-01     1.77437801e+03     4.75022280e-05    -1.33831288e-01     9.78326123e+02   
    7.00000000e+00    -1.15073209e-01     1.94071136e+03     4.75022280e-05    -1.35678468e-01     1.07016555e+03   
    7.50000000e+00    -1.15076322e-01     2.11102821e+03     4.75022280e-05    -1.37429463e-01     1.16420443e+03   
    8.00000000e+00    -1.15079022e-01     2.27765078e+03     4.75022280e-05    -1.39069615e-01     1.25620355e+03   
    8.50000000e+00    -1.15081294e-01     2.43204734e+03     4.75022280e-05    -1.40580714e-01     1.34145218e+03   
    9.00000000e+00    -1.15083185e-01     2.54898980e+03     4.75022280e-05    -1.41944743e-01     1.40602089e+03   
    9.50000000e+00    -1.15084669e-01     2.64371994e+03     4.75022280e-05    -1.43145304e-01     1.45832526e+03   
    1.00000000e+01    -1.15085800e-01     2.71827829e+03     4.75022280e-05    -1.44179037e-01     1.49949197e+03   
    1.05000000e+01    -1.15086457e-01     2.78088699e+03     4.75022280e-05    -1.45045254e-01     1.53406079e+03   
    1.10000000e+01    -1.15086826e-01     2.82781640e+03     4.75022280e-05    -1.45745694e-01     1.55997243e+03   
    1.15000000e+01    -1.15086936e-01     2.83935733e+03     4.75022280e-05    -1.46284371e-01     1.56634464e+03   
    1.20000000e+01    -1.15086785e-01     2.83809398e+03     4.75022280e-05    -1.46666119e-01     1.56564710e+03   
    1.25000000e+01    -1.15086422e-01     2.83267268e+03     4.75022280e-05    -1.46899721e-01     1.56265377e+03   
    1.30000000e+01    -1.15085867e-01     2.81158878e+03     4.75022280e-05    -1.46994252e-01     1.55101250e+03   
    1.35000000e+01    -1.15085165e-01     2.77591030e+03     4.75022280e-05    -1.46959078e-01     1.53131295e+03   
    1.40000000e+01    -1.15084329e-01     2.73389867e+03     4.75022280e-05    -1.46804276e-01     1.50811662e+03   
    1.45000000e+01    -1.15083391e-01     2.68638691e+03     4.75022280e-05    -1.46540356e-01     1.48188344e+03   
    1.50000000e+01    -1.15082344e-01     2.62100575e+03     4.75022280e-05    -1.46177595e-01     1.44578383e+03   
    1.55000000e+01    -1.15081203e-01     2.54268997e+03     4.75022280e-05    -1.45725707e-01     1.40254249e+03   
    1.60000000e+01    -1.15080024e-01     2.46092025e+03     4.75022280e-05    -1.45196806e-01     1.35739410e+03   
    1.65000000e+01    -1.15078858e-01     2.36705338e+03     4.75022280e-05    -1.44600932e-01     1.30556637e+03   
    1.70000000e+01    -1.15077652e-01     2.28168186e+03     4.75022280e-05    -1.43945919e-01     1.25842927e+03   
    1.75000000e+01    -1.15076354e-01     2.18303984e+03     4.75022280e-05    -1.43242768e-01     1.20396499e+03   
    1.80000000e+01    -1.15074954e-01     2.08128810e+03     4.75022280e-05    -1.42499031e-01     1.14778370e+03   
    1.85000000e+01    -1.15073539e-01     1.97340809e+03     4.75022280e-05    -1.41723270e-01     1.08821875e+03   
    1.90000000e+01    -1.15072185e-01     1.87273384e+03     4.75022280e-05    -1.40923828e-01     1.03263239e+03   
    1.95000000e+01    -1.15070778e-01     1.75835673e+03     4.75022280e-05    -1.40107484e-01     9.69480122e+02   
    2.00000000e+01    -1.15069279e-01     1.65787378e+03     4.75022280e-05    -1.39280956e-01     9.13999385e+02   
    2.05000000e+01    -1.15067689e-01     1.54557547e+03     4.75022280e-05    -1.38449530e-01     8.51994908e+02   
    2.10000000e+01    -1.15066175e-01     1.44164629e+03     4.75022280e-05    -1.37619986e-01     7.94611368e+02   
    2.15000000e+01    -1.15064626e-01     1.34062220e+03     4.75022280e-05    -1.36796736e-01     7.38831845e+02   
    2.20000000e+01    -1.15062984e-01     1.24091444e+03     4.75022280e-05    -1.35983116e-01     6.83779126e+02   
    2.25000000e+01    -1.15061451e-01     1.14703073e+03     4.75022280e-05    -1.35178884e-01     6.31942100e+02   
    2.30000000e+01    -1.15059780e-01     1.05968979e+03     4.75022280e-05    -1.34390418e-01     5.83717603e+02   
    2.35000000e+01    -1.15057951e-01     9.78708944e+02     4.75022280e-05    -1.33620329e-01     5.39004777e+02   
    2.40000000e+01    -1.15056048e-01     8.92025491e+02     4.75022280e-05    -1.32870227e-01     4.91143306e+02   
    2.45000000e+01    -1.15054265e-01     8.12748634e+02     4.75022280e-05    -1.32146330e-01     4.47371320e+02   
    2.50000000e+01    -1.15052396e-01     7.30416658e+02     4.75022280e-05    -1.31448620e-01     4.01912478e+02   
    2.55000000e+01    -1.15050461e-01     6.49342994e+02     4.75022280e-05    -1.30781400e-01     3.57148401e+02   
    2.60000000e+01    -1.15048504e-01     5.69483422e+02     4.75022280e-05    -1.30146862e-01     3.13054674e+02   
    2.65000000e+01    -1.15046654e-01     5.00588164e+02     4.75022280e-05    -1.29548315e-01     2.75014792e+02   
    2.70000000e+01    -1.15044865e-01     4.35598024e+02     4.75022280e-05    -1.28983081e-01     2.39131085e+02   
    2.75000000e+01    -1.15043012e-01     3.75179698e+02     4.75022280e-05    -1.28453847e-01     2.05771663e+02   
    2.80000000e+01    -1.15041025e-01     3.18942333e+02     4.75022280e-05    -1.27960448e-01     1.74720720e+02   
    2.85000000e+01    -1.15038969e-01     2.67280242e+02     4.75022280e-05    -1.27506383e-01     1.46195972e+02   
    2.90000000e+01    -1.15036842e-01     2.21806070e+02     4.75022280e-05    -1.27090799e-01     1.21087826e+02   
    2.95000000e+01    -1.15034666e-01     1.80136158e+02     4.75022280e-05    -1.26714782e-01     9.80801682e+01   
    3.00000000e+01    -1.15032558e-01     1.42669982e+02     4.75022280e-05    -1.26376495e-01     7.73935645e+01   
    3.05000000e+01    -1.15030411e-01     1.13987827e+02     4.75022280e-05    -1.26076422e-01     6.15569765e+01   
    3.10000000e+01    -1.15028218e-01     8.13468027e+01     4.75022280e-05    -1.25817875e-01     4.35345359e+01   
    3.15000000e+01    -1.15026019e-01     5.89396142e+01     4.75022280e-05    -1.25598416e-01     3.11626131e+01   
    3.20000000e+01    -1.15023770e-01     3.91375472e+01     4.75022280e-05    -1.25420782e-01     2.02290842e+01   
    3.25000000e+01    -1.15021457e-01     2.44869330e+01     4.75022280e-05    -1.25282875e-01     1.21398825e+01   
    3.30000000e+01    -1.15018977e-01     1.52583872e+01     4.75022280e-05    -1.25183328e-01     7.04442597e+00   
    3.35000000e+01    -1.15016416e-01     9.60632524e+00     4.75022280e-05    -1.25121312e-01     3.92369203e+00   
    3.40000000e+01    -1.15013733e-01     6.96577553e+00     4.75022280e-05    -1.25093988e-01     2.46573683e+00   
    3.45000000e+01    -1.15011061e-01     8.01374899e+00     4.75022280e-05    -1.25103121e-01     3.04436572e+00   
    3.50000000e+01    -1.15008222e-01     1.37505229e+01     4.75022280e-05    -1.25149375e-01     6.21187258e+00   
    3.55000000e+01    -1.15005397e-01     2.16345744e+01     4.75022280e-05    -1.25234334e-01     1.05649790e+01   
    3.60000000e+01    -1.15002620e-01     3.35749442e+01     4.75022280e-05    -1.25355758e-01     1.71577442e+01   
    3.65000000e+01    -1.15000048e-01     5.02508649e+01     4.75022280e-05    -1.25517030e-01     2.63652002e+01   
    3.70000000e+01    -1.14997508e-01     7.03111772e+01     4.75022280e-05    -1.25713390e-01     3.74413169e+01   
    3.75000000e+01    -1.14994979e-01     9.33034866e+01     4.75022280e-05    -1.25947302e-01     5.01363088e+01   
    3.80000000e+01    -1.14992466e-01     1.22016099e+02     4.75022280e-05    -1.26221506e-01     6.59897134e+01   
    3.85000000e+01    -1.14989833e-01     1.52438717e+02     4.75022280e-05    -1.26527365e-01     8.27872818e+01   
    3.90000000e+01    -1.14987050e-01     1.84495977e+02     4.75022280e-05    -1.26868188e-01     1.00487402e+02   
    3.95000000e+01    -1.14984522e-01     2.24638146e+02     4.75022280e-05    -1.27246822e-01     1.22651531e+02   
    4.00000000e+01    -1.14981797e-01     2.70593923e+02     4.75022280e-05    -1.27662077e-01     1.48025590e+02   
    4.05000000e+01    -1.14978885e-01     3.19479103e+02     4.75022280e-05    -1.28115192e-01     1.75017092e+02   
    4.10000000e+01    -1.14976096e-01     3.70097521e+02     4.75022280e-05    -1.28601105e-01     2.02965585e+02   
    4.15000000e+01    -1.14973422e-01     4.26411726e+02     4.75022280e-05    -1.29118573e-01     2.34058955e+02   
    4.20000000e+01    -1.14970758e-01     4.76951311e+02     4.75022280e-05    -1.29669136e-01     2.61963921e+02   
    4.25000000e+01    -1.14968130e-01     5.34682162e+02     4.75022280e-05    -1.30246425e-01     2.93839479e+02   
    4.30000000e+01    -1.14965465e-01     5.83294735e+02     4.75022280e-05    -1.30852246e-01     3.20680463e+02   
    4.35000000e+01    -1.14962757e-01     6.47680720e+02     4.75022280e-05    -1.31480142e-01     3.56230592e+02   
    4.40000000e+01    -1.14960041e-01     7.06740635e+02     4.75022280e-05    -1.32132986e-01     3.88839980e+02   
    4.45000000e+01    -1.14957081e-01     7.67192828e+02     4.75022280e-05    -1.32803834e-01     4.22218101e+02   
    4.50000000e+01    -1.14954131e-01     8.28569067e+02     4.75022280e-05    -1.33492462e-01     4.56106426e+02   
    4.55000000e+01    -1.14951276e-01     8.90694627e+02     4.75022280e-05    -1.34200819e-01     4.90408482e+02   
    4.60000000e+01    -1.14948485e-01     9.65871925e+02     4.75022280e-05    -1.34922255e-01     5.31916935e+02   
    4.65000000e+01    -1.14945577e-01     1.03148414e+03     4.75022280e-05    -1.35658908e-01     5.68144114e+02   
    4.70000000e+01    -1.14942572e-01     1.09113067e+03     4.75022280e-05    -1.36402850e-01     6.01077398e+02   
    4.75000000e+01    -1.14939501e-01     1.16092106e+03     4.75022280e-05    -1.37150597e-01     6.39611517e+02   
    4.80000000e+01    -1.14936316e-01     1.24578192e+03     4.75022280e-05    -1.37906295e-01     6.86466658e+02   
    4.85000000e+01    -1.14933223e-01     1.31524033e+03     4.75022280e-05    -1.38663831e-01     7.24817483e+02   
    4.90000000e+01    -1.14930238e-01     1.38828440e+03     4.75022280e-05    -1.39417641e-01     7.65148094e+02   
    4.95000000e+01    -1.14927289e-01     1.46023292e+03     4.75022280e-05    -1.40164811e-01     8.04873803e+02   
    5.00000000e+01    -1.14924383e-01     1.51928540e+03     4.75022280e-05    -1.40900075e-01     8.37479089e+02   
    5.05000000e+01    -1.14921410e-01     1.58398979e+03     4.75022280e-05    -1.41616432e-01     8.73205020e+02   
    5.10000000e+01    -1.14918366e-01     1.65414495e+03     4.75022280e-05    -1.42313461e-01     9.11940547e+02   
    5.15000000e+01    -1.14915519e-01     1.70402842e+03     4.75022280e-05    -1.42983550e-01     9.39483244e+02   
    5.20000000e+01    -1.14912741e-01     1.76131299e+03     4.75022280e-05    -1.43621593e-01     9.71112390e+02   
    5.25000000e+01    -1.14910049e-01     1.80012815e+03     4.75022280e-05    -1.44221356e-01     9.92543825e+02   
    5.30000000e+01    -1.14907450e-01     1.84214074e+03     4.75022280e-05    -1.44776999e-01     1.01574069e+03   
    5.35000000e+01    -1.14905073e-01     1.87880752e+03     4.75022280e-05    -1.45282909e-01     1.03598591e+03   
    5.40000000e+01    -1.14902840e-01     1.89684257e+03     4.75022280e-05    -1.45733908e-01     1.04594380e+03   
    5.45000000e+01    -1.14900775e-01     1.92090660e+03     4.75022280e-05    -1.46123300e-01     1.05923053e+03   
    5.50000000e+01    -1.14899094e-01     1.93814035e+03     4.75022280e-05    -1.46447954e-01     1.06874599e+03   
    5.55000000e+01    -1.14897739e-01     1.93927849e+03     4.75022280e-05    -1.46701312e-01     1.06937441e+03   
    5.60000000e+01    -1.14896831e-01     1.93938377e+03     4.75022280e-05    -1.46879509e-01     1.06943253e+03   
    5.65000000e+01    -1.14896481e-01     1.92048927e+03     4.75022280e-05    -1.46977922e-01     1.05900011e+03   
    5.70000000e+01    -1.14896734e-01     1.87789538e+03     4.75022280e-05    -1.46992893e-01     1.03548229e+03   
    5.75000000e+01    -1.14897616e-01     1.85626140e+03     4.75022280e-05    -1.46922472e-01     1.02353728e+03   
    5.80000000e+01    -1.14899198e-01     1.80884353e+03     4.75022280e-05    -1.46764723e-01     9.97355943e+02   
    5.85000000e+01    -1.14901589e-01     1.76220561e+03     4.75022280e-05    -1.46519090e-01     9.71605243e+02   
    5.90000000e+01    -1.14904892e-01     1.71632560e+03     4.75022280e-05    -1.46184702e-01     9.46273017e+02   
    5.95000000e+01    -1.14909158e-01     1.65223718e+03     4.75022280e-05    -1.45763902e-01     9.10887190e+02   
    6.00000000e+01    -1.14914322e-01     1.58326625e+03     4.75022280e-05    -1.45256599e-01     8.72805524e+02   
    6.05000000e+01    -1.14920749e-01     1.50845387e+03     4.75022280e-05    -1.44667119e-01     8.31498560e+02   
    6.10000000e+01    -1.14928596e-01     1.41920985e+03     4.75022280e-05    -1.44001571e-01     7.82223295e+02   
    6.15000000e+01    -1.14937230e-01     1.32112497e+03     4.75022280e-05    -1.43265411e-01     7.28066633e+02   
    6.20000000e+01    -1.14946049e-01     1.21685813e+03     4.75022280e-05    -1.42467972e-01     6.70496654e+02   
    6.25000000e+01    -1.14956206e-01     1.11443659e+03     4.75022280e-05    -1.41624997e-01     6.13945548e+02   
    6.30000000e+01    -1.14967248e-01     1.00590011e+03     4.75022280e-05    -1.40741259e-01     5.54018126e+02   
    6.35000000e+01    -1.14978025e-01     9.01192443e+02     4.75022280e-05    -1.39827622e-01     4.96204754e+02   
    6.40000000e+01    -1.14990043e-01     7.93956633e+02     4.75022280e-05    -1.38902092e-01     4.36995490e+02   
    6.45000000e+01    -1.15002836e-01     6.88249597e+02     4.75022280e-05    -1.37974990e-01     3.78630324e+02   
    6.50000000e+01    -1.15015322e-01     5.79432888e+02     4.75022280e-05    -1.37064081e-01     3.18548180e+02   
    6.55000000e+01    -1.15027930e-01     4.78454218e+02     4.75022280e-05    -1.36187094e-01     2.62793738e+02   
    6.60000000e+01    -1.15041034e-01     3.86398049e+02     4.75022280e-05    -1.35357165e-01     2.11965771e+02   
    6.65000000e+01    -1.15053949e-01     2.99438852e+02     4.75022280e-05    -1.34585518e-01     1.63952052e+02   
    6.70000000e+01    -1.15066865e-01     2.19309701e+02     4.75022280e-05    -1.33894657e-01     1.19709479e+02   
    6.75000000e+01    -1.15079451e-01     1.50261064e+02     4.75022280e-05    -1.33299955e-01     8.15849106e+01   
    6.80000000e+01    -1.15091311e-01     9.55699535e+01     4.75022280e-05    -1.32803545e-01     5.13877176e+01   
    6.85000000e+01    -1.15101782e-01     5.29779435e+01     4.75022280e-05    -1.32420570e-01     2.78709316e+01   
    6.90000000e+01    -1.15110424e-01     2.27000495e+01     4.75022280e-05    -1.32154874e-01     1.11532713e+01   
    6.95000000e+01    -1.15118563e-01     7.36098688e+00     4.75022280e-05    -1.32015171e-01     2.68394913e+00   
    7.00000000e+01    -1.15124869e-01     5.12844596e+00     4.75022280e-05    -1.31997665e-01     1.45127223e+00   
    7.05000000e+01    -1.15130016e-01     1.58981963e+01     4.75022280e-05    -1.32106614e-01     7.39769066e+00   
    7.10000000e+01    -1.15133813e-01     3.93664021e+01     4.75022280e-05    -1.32338260e-01     2.03554444e+01   
    7.15000000e+01    -1.15135587e-01     7.23661874e+01     4.75022280e-05    -1.32680481e-01     3.85759718e+01   
    7.20000000e+01    -1.15135892e-01     1.20520352e+02     4.75022280e-05    -1.33125651e-01     6.51638502e+01   
    7.25000000e+01    -1.15134610e-01     1.78543857e+02     4.75022280e-05    -1.33671387e-01     9.72009939e+01   
    7.30000000e+01    -1.15131102e-01     2.41176209e+02     4.75022280e-05    -1.34302784e-01     1.31782870e+02   
    7.35000000e+01    -1.15125531e-01     3.15971561e+02     4.75022280e-05    -1.35007034e-01     1.73080435e+02   
    7.40000000e+01    -1.15118938e-01     3.93228882e+02     4.75022280e-05    -1.35778454e-01     2.15737353e+02   
    7.45000000e+01    -1.15111851e-01     4.73254500e+02     4.75022280e-05    -1.36598323e-01     2.59922761e+02   
    7.50000000e+01    -1.15103845e-01     5.57282652e+02     4.75022280e-05    -1.37448681e-01     3.06318131e+02   
    7.55000000e+01    -1.15096115e-01     6.44773378e+02     4.75022280e-05    -1.38317641e-01     3.54625329e+02   
    7.60000000e+01    -1.15088400e-01     7.35723027e+02     4.75022280e-05    -1.39195026e-01     4.04842341e+02   
    7.65000000e+01    -1.15080972e-01     8.20036949e+02     4.75022280e-05    -1.40068267e-01     4.51395496e+02   
    7.70000000e+01    -1.15073659e-01     8.95894543e+02     4.75022280e-05    -1.40922195e-01     4.93279568e+02   
    7.75000000e+01    -1.15066192e-01     9.73557624e+02     4.75022280e-05    -1.41744150e-01     5.36160523e+02   
    7.80000000e+01    -1.15059325e-01     1.05767465e+03     4.75022280e-05    -1.42526959e-01     5.82604962e+02   
    7.85000000e+01    -1.15052697e-01     1.12570541e+03     4.75022280e-05    -1.43263137e-01     6.20167522e+02   
    7.90000000e+01    -1.15046650e-01     1.17756056e+03     4.75022280e-05    -1.43941853e-01     6.48798866e+02   
    7.95000000e+01    -1.15041358e-01     1.22729596e+03     4.75022280e-05    -1.44558735e-01     6.76259805e+02   
    8.00000000e+01    -1.15036785e-01     1.27974982e+03     4.75022280e-05    -1.45108889e-01     7.05221721e+02   
    8.05000000e+01    -1.15032937e-01     1.32228811e+03     4.75022280e-05    -1.45591808e-01     7.28708847e+02   
    8.10000000e+01    -1.15029740e-01     1.35385008e+03     4.75022280e-05    -1.46002795e-01     7.46135497e+02   
    8.15000000e+01    -1.15027244e-01     1.36333609e+03     4.75022280e-05    -1.46341558e-01     7.51373115e+02   
    8.20000000e+01    -1.15025210e-01     1.38809778e+03     4.75022280e-05    -1.46607790e-01     7.65045054e+02   
    8.25000000e+01    -1.15023652e-01     1.40174305e+03     4.75022280e-05    -1.46804060e-01     7.72579163e+02   
